   Nsub = 2.4e18 cm-3

      Ns [1/m2]         Eeff [V/m]        mob. [m2/Vs]

   4.70509336583E+14   8.60560713095E+7   .00184639071626
   5.91497451705E+14   8.61496318526E+7   .00207241876321
   7.31990099274E+14   8.62582753206E+7   .00234664266085
   8.9198727929E+14   8.63820017134E+7   .00266065946775
   1.07070881046E+15   8.65202077141E+7   .0030119883581
   1.26815469277E+15   8.66728933227E+7   .00340795697271
   1.48432492624E+15   8.68400585391E+7   .00383816340308
   1.71843932956E+15   8.70211000464E+7   .00429873505321
   1.96893754013E+15   8.72148112106E+7   .00477845768706
   2.23503937666E+15   8.74205887147E+7   .00527566595919
   2.51596465785E+15   8.76378292416E+7   .00578478078252
   2.81093320241E+15   8.78659294745E+7   .00631890952159
   3.11838464773E+15   8.81036827793E+7   .0068368725551
   3.43753881252E+15   8.8350485839E+7   .00735681993151
   3.76683533418E+15   8.86051320196E+7   .00788109243419
   4.10471385012E+15   8.88664146871E+7   .00839143632261
   4.45195454163E+15   8.91349371586E+7   .00889575465993
   4.80699704613E+15   8.94094928E+7   .0093827343503
   5.1690611823E+15   8.96894782944E+7   .00984920737828
   5.53814695016E+15   8.99748936417E+7   .0103203085967
   5.9134741684E+15   9.0265135525E+7   .0107633298835
   6.29348247442E+15   9.05589973102E+7   .011173618315
   6.67817186824E+15   9.08564789975E+7   .0115941921424
   7.06754234984E+15   9.11575805866E+7   .0119931173648
   7.46003355663E+15   9.14610954438E+7   .0123765144984
   7.85642566991E+15   9.17676268859E+7   .0127421578831
   8.25593850839E+15   9.2076571596E+7   .0130985757603
   8.65857207205E+15   9.23879295741E+7   .0134344606267
   9.06432636091E+15   9.27017008202E+7   .0137567403226
   9.47242119366E+15   9.30172820172E+7   .0140737547172
   9.8828565703E+15   9.33346731652E+7   .0143836807529
   1.02948523095E+16   9.36532709472E+7   .0146288667549
   1.07091885927E+16   9.39736786802E+7   .0149090396118
   1.11258654197E+16   9.42958963642E+7   .0151801396527
   1.1543322428E+16   9.46187173652E+7   .0154161755577
   1.1962339799E+16   9.49427450001E+7   .0156615797375
   1.23829175325E+16   9.52679792691E+7   .0159018398757
   1.28042754473E+16   9.5593816855E+7   .0161340165061
   1.32271937247E+16   9.5920861075E+7   .0163452673574
   1.36508921834E+16   9.62485086119E+7   .0165506274329
   1.40753708234E+16   9.65767594658E+7   .0167537543027
   1.4501409826E+16   9.69062169537E+7   .0169293638138
   1.49282290099E+16   9.72362777586E+7   .0170933110825
   1.53558283751E+16   9.75669418805E+7   .0172581286513
   1.57849881029E+16   9.78988126364E+7   .017426382078
   1.6214928012E+16   9.82312867093E+7   .0175780255866
   1.66448679211E+16   9.85637607822E+7   .017737866952
   1.70748078302E+16   9.88962348551E+7   .0178551466404
   1.75055279206E+16   9.92293122449E+7   .0180027032289
   1.79378083736E+16   9.95635962688E+7   .0181391153827
   1.83708690078E+16   9.98984836097E+7   .0182477537436
   1.88039296421E+16   1.00233370951E+8   .0183714921332
   1.92377704577E+16   1.00568861608E+8   .0184542319735
   1.96716112733E+16   1.00904352266E+8   .0185751480339
   2.01054520889E+16   1.01239842924E+8   .0186692781395
   2.05400730858E+16   1.01575936899E+8   .0187673802109
   2.09754742639E+16   1.01912634191E+8   .0188575346767
   2.14108754421E+16   1.02249331483E+8   .0189253277086
   2.18462766203E+16   1.02586028774E+8   .0190189196305
   2.22832381611E+16   1.029239327E+8   .0191000312226
   2.27209798831E+16   1.03262439943E+8   .0191577901338
   2.31579414239E+16   1.03600343869E+8   .0192356183413
   2.35949029647E+16   1.03938247795E+8   .0193082077444
   2.40326446867E+16   1.04276755038E+8   .0193659621521
   2.44703864088E+16   1.0461526228E+8   .0194102909807
   2.49081281309E+16   1.04953769523E+8   .019455293648
   2.5345869853E+16   1.05292276766E+8   .0194987418573
   2.5783611575E+16   1.05630784009E+8   .0195514955083
   2.62221334784E+16   1.05969894569E+8   .0196146251068
   2.66614355631E+16   1.06309608446E+8   .019648412219
   2.71007376477E+16   1.06649322322E+8   .0196716677251
   2.75400397324E+16   1.06989036199E+8   .0197095229219
   2.79793418171E+16   1.07328750076E+8   .0197398311925
   2.84186439017E+16   1.07668463953E+8   .0197570738533
   2.88579459864E+16   1.0800817783E+8   .0197745621245
   2.92972480711E+16   1.08347891706E+8   .0198173327181
   2.9737330337E+16   1.086882089E+8   .0198231724456
   3.01781927843E+16   1.09029129411E+8   .0198393822159
   3.06190552316E+16   1.09370049922E+8   .0198645665337
   3.10599176788E+16   1.09710970433E+8   .019872211144
   3.15015603074E+16   1.1005249426E+8   .0198759728316
   3.19432029359E+16   1.10394018088E+8   .0198775420495
   3.23848455645E+16   1.10735541916E+8   .0198883383394
   3.28272683744E+16   1.11077669061E+8   .0198963389962
   3.32689110029E+16   1.11419192889E+8   .0199035910178
   3.37105536315E+16   1.11760716716E+8   .0198961406434
   3.41529764413E+16   1.12102843861E+8   .0199105663055
   3.45953992512E+16   1.12444971006E+8   .0198973047844
   3.50378220611E+16   1.12787098151E+8   .0199008794653
   3.54802448709E+16   1.13129225296E+8   .0198924567237
   3.59226676808E+16   1.1347135244E+8   .0198826938704
   3.63650904906E+16   1.13813479585E+8   .0198578810464
   3.68075133005E+16   1.1415560673E+8   .019865382632
   3.72499361104E+16   1.14497733875E+8   .019841364827
   3.76923589202E+16   1.1483986102E+8   .0198241055154
   3.81347817301E+16   1.15181988164E+8   .0198095791674
   3.85772045399E+16   1.15524115309E+8   .0198063382929
   3.90196273498E+16   1.15866242454E+8   .0197766705604
   3.94620501596E+16   1.16208369599E+8   .0197507673673
   3.99044729695E+16   1.16550496743E+8   .0197418778127
   4.03468957794E+16   1.16892623888E+8   .0197243647768
   4.07893185892E+16   1.17234751033E+8   .019693602296
   4.12325215804E+16   1.17577481495E+8   .0196766107806
   4.16765047528E+16   1.17920815274E+8   .0196433387751
   4.2119707744E+16   1.18263545735E+8   .0196333055316
   4.25621305538E+16   1.1860567288E+8   .0196154814809
   4.3005333545E+16   1.18948403342E+8   .0195803463847
   4.34493167175E+16   1.19291737121E+8   .0195440417256
   4.38932998899E+16   1.196350709E+8   .0195072049602
   4.43372830624E+16   1.19978404678E+8   .0194846477469
   4.47812662348E+16   1.20321738457E+8   .0194347295834
   4.52252494073E+16   1.20665072236E+8   .0194170145224
   4.56692325797E+16   1.21008406015E+8   .01938771435
   4.61124355709E+16   1.21351136476E+8   .0193395340623
   4.6555638562E+16   1.21693866938E+8   .019320930095
   4.69996217345E+16   1.22037200717E+8   .0192952595188
   4.7443604907E+16   1.22380534496E+8   .0192553050382
   4.78875880794E+16   1.22723868275E+8   .0192193419727
   4.83315712519E+16   1.23067202053E+8   .0191640253471
   4.87755544243E+16   1.23410535832E+8   .0191388940398
   4.92195375968E+16   1.23753869611E+8   .0191029211758
   4.96635207692E+16   1.2409720339E+8   .0190481139791
   5.01075039417E+16   1.24440537169E+8   .0190253434412
   5.05514871141E+16   1.24783870947E+8   .0189752595707
   5.09954702866E+16   1.25127204726E+8   .018936949392
   5.1439453459E+16   1.25470538505E+8   .0189120533936
   5.18834366315E+16   1.25813872284E+8   .0188635818322
   5.23281999852E+16   1.26157809379E+8   .0188381750446
   5.27737435203E+16   1.26502349792E+8   .0187918498683
   5.32185068741E+16   1.26846286888E+8   .0187461573176
   5.36632702278E+16   1.27190223984E+8   .0186823676255
   5.41080335816E+16   1.27534161079E+8   .0186490116511
   5.4552016754E+16   1.27877494858E+8   .0186081093057
   5.49959999265E+16   1.28220828637E+8   .0185563435745
   5.54399830989E+16   1.28564162416E+8   .0184945771097
   5.58839662714E+16   1.28907496195E+8   .0184698037416
   5.63279494438E+16   1.29250829973E+8   .01842193135
   5.67727127976E+16   1.29594767069E+8   .0183796471834
   5.72174761513E+16   1.29938704165E+8   .0183318020641
   5.76622395051E+16   1.30282641261E+8   .0183003137429
   5.81070028588E+16   1.30626578356E+8   .0182476851645
   5.85517662126E+16   1.30970515452E+8   .0182004135887
   5.89965295663E+16   1.31314452548E+8   .0181651625153
   5.94412929201E+16   1.31658389644E+8   .0180803088934
   5.98868364551E+16   1.32002930057E+8   .018065918376
   6.03323799902E+16   1.32347470469E+8   .018009722323
   6.07779235252E+16   1.32692010882E+8   .0179574601411
   6.12234670603E+16   1.33036551295E+8   .0179092275535
   6.1668230414E+16   1.33380488391E+8   .0178703918705
   6.21129937678E+16   1.33724425486E+8   .0178195818871
   6.25585373029E+16   1.34068965899E+8   .0177546987681
   6.30040808379E+16   1.34413506312E+8   .0177127926833
   6.3449624373E+16   1.34758046725E+8   .0176567553239
   6.3895167908E+16   1.35102587138E+8   .0176276015413
   6.43407114431E+16   1.3544712755E+8   .0175642897577
   6.47862549781E+16   1.35791667963E+8   .0175241594333
   6.52317985132E+16   1.36136208376E+8   .0174913952303
   6.56773420482E+16   1.36480748789E+8   .0174353746918
   6.61228855833E+16   1.36825289201E+8   .017381790611
   6.65684291183E+16   1.37169829614E+8   .0173272535507
   6.70139726534E+16   1.37514370027E+8   .0172833965894
   6.74595161884E+16   1.3785891044E+8   .0172302297744
   6.79050597235E+16   1.38203450852E+8   .0172334315862
   6.83506032585E+16   1.38547991265E+8   .0171942972634
   6.87961467936E+16   1.38892531678E+8   .0171475889688
   6.92416903286E+16   1.39237072091E+8   .0171175395033
   6.96872338637E+16   1.39581612504E+8   .0170559641494
   7.01327773987E+16   1.39926152916E+8   .0170110248587
   7.05783209338E+16   1.40270693329E+8   .0169666529495
   7.10238644688E+16   1.40615233742E+8   .0169071829447
   7.14694080039E+16   1.40959774155E+8   .0168562330204
   7.19149515389E+16   1.41304314567E+8   .0168213752317
   7.2360495074E+16   1.4164885498E+8   .0167638982616
   7.2806038609E+16   1.41993395393E+8   .0167147605605
   7.32515821441E+16   1.42337935806E+8   .0166434525463
   7.36971256791E+16   1.42682476218E+8   .0166031806177
   7.41426692142E+16   1.43027016631E+8   .0165558945584
   7.45882127492E+16   1.43371557044E+8   .0165166267655
   7.50337562843E+16   1.43716097457E+8   .0164407798391
   7.54800800006E+16   1.44061241187E+8   .0164024855943
   7.5926403717E+16   1.44406384916E+8   .0163646415652
   7.6371947252E+16   1.44750925329E+8   .0162982895631
   7.68174907871E+16   1.45095465742E+8   .0162471813515
   7.72630343221E+16   1.45440006155E+8   .0162326391731
