    Nsub = 1.6e16 cm-3

      Ns [1/m2]         Eeff [V/m]        mob. [m2/Vs]

   6.37207502341E+14   6.24638776914E+6   .0157716225532
   9.31246688075E+14   6.39797547338E+6   .0170949765903
   1.25727330702E+15   6.56605384213E+6   .017903413169
   1.60436482101E+15   6.74499191677E+6   .0183273564613
   1.96627977967E+15   6.93157200668E+6   .0185731633156
   2.33911727649E+15   7.1237830552E+6   .0187065491125
   2.71975658629E+15   7.32001621702E+6   .0187703089263
   3.10585716517E+15   7.51906485814E+6   .0187326368238
   3.49663883185E+15   7.72052676724E+6   .018681158791
   3.89132140501E+15   7.92399973299E+6   .0186236263061
   4.28912470337E+15   8.12908154406E+6   .0185123049764
   4.68926854562E+15   8.33536998912E+6   .0184185313928
   5.09253311306E+15   8.54326727949E+6   .0182759559451
   5.49891840569E+15   8.75277341518E+6   .018168222652
   5.90608387962E+15   8.9626817622E+6   .0180359875854
   6.31402953485E+15   9.17299232056E+6   .0179151795293
   6.72353555267E+15   9.38410730157E+6   .0177760359553
   7.13460193309E+15   9.59602670524E+6   .0176664319472
   7.5472286761E+15   9.80875053156E+6   .0175520276664
   7.96063560042E+15   1.00218765692E+7   .0174006078539
   8.37404252473E+15   1.02350026069E+7   .0172686829168
   8.78822963034E+15   1.04485308559E+7   .0171332143608
   9.20397709855E+15   1.06628635275E+7   .0170070565636
   9.62128492935E+15   1.08780006218E+7   .0168943376301
   1.00393729415E+16   1.10935399275E+7   .0167795771849
   1.04574609536E+16   1.13090792331E+7   .01667277995
   1.08755489657E+16   1.15246185387E+7   .0165508664059
   1.12936369778E+16   1.17401578444E+7   .0164323633063
   1.17125051712E+16   1.19560993613E+7   .0163374790877
   1.21321535458E+16   1.21724430896E+7   .016206279544
   1.25525821018E+16   1.23891890293E+7   .0161283278202
   1.29737908391E+16   1.26063371802E+7   .0159997097642
   1.33949995764E+16   1.28234853312E+7   .0159142193003
   1.38162083137E+16   1.30406334821E+7   .0157917078203
   1.4237417051E+16   1.32577816331E+7   .0156978282999
   1.46586257883E+16   1.3474929784E+7   .0155980942817
   1.50806147069E+16   1.36924801463E+7   .0155191114483
   1.55033838068E+16   1.39104327199E+7   .0154272871741
   1.59261529067E+16   1.41283852935E+7   .0153204257859
   1.63489220066E+16   1.43463378671E+7   .0152346088942
   1.67716911064E+16   1.45642904408E+7   .0151258904631
   1.71944602063E+16   1.47822430144E+7   .015060880537
   1.76180094875E+16   1.50005977993E+7   .0149572865388
   1.804233895E+16   1.52193547956E+7   .0148832244523
   1.84666684125E+16   1.54381117919E+7   .0147995146578
   1.88902176937E+16   1.56564665768E+7   .0147121152494
   1.93137669749E+16   1.58748213617E+7   .0146331466521
   1.97388766186E+16   1.60939805693E+7   .0145493474705
   2.01639862624E+16   1.63131397769E+7   .0144659362489
   2.05883157249E+16   1.65318967732E+7   .0143957564832
   2.10126451874E+16   1.67506537695E+7   .014312715386
   2.14377548312E+16   1.69698129771E+7   .0142365857703
   2.18636446563E+16   1.7189374396E+7   .0141652320755
   2.22895344813E+16   1.7408935815E+7   .0141051416131
   2.27154243064E+16   1.76284972339E+7   .0140104480401
   2.31413141315E+16   1.78480586528E+7   .0139581587614
   2.35672039566E+16   1.80676200718E+7   .0138727733096
   2.39930937817E+16   1.82871814907E+7   .013814210299
   2.44189836067E+16   1.85067429096E+7   .0137374306768
   2.48448734318E+16   1.87263043285E+7   .0136678784639
   2.52715434382E+16   1.89462679588E+7   .01360476823
   2.56989936259E+16   1.91666338004E+7   .0135418616859
   2.61256636322E+16   1.93865974307E+7   .0134828727369
   2.65515534573E+16   1.96061588496E+7   .0134175745975
   2.69782234637E+16   1.98261224798E+7   .0133647664129
   2.74056736514E+16   2.00464883214E+7   .013288229167
   2.78331238391E+16   2.0266854163E+7   .0132350073223
   2.82605740267E+16   2.04872200046E+7   .0131694808879
   2.86880242144E+16   2.07075858462E+7   .0131081179829
   2.91154744021E+16   2.09279516878E+7   .0130524779428
   2.95429245898E+16   2.11483175294E+7   .0129799848954
   2.99703747774E+16   2.1368683371E+7   .0129235269635
   3.03978249651E+16   2.15890492126E+7   .0128840968909
   3.08252751528E+16   2.18094150542E+7   .0128202466144
   3.12527253405E+16   2.20297808958E+7   .0127707253209
   3.16801755281E+16   2.22501467373E+7   .0127185363038
   3.21076257158E+16   2.24705125789E+7   .0126578599603
   3.25350759035E+16   2.26908784205E+7   .0126186621535
   3.29633062725E+16   2.29116464734E+7   .0125644055444
   3.33923168227E+16   2.31328167377E+7   .0124937739033
   3.3821327373E+16   2.33539870019E+7   .0124590644455
   3.42503379233E+16   2.35751572662E+7   .0124141136954
   3.46785682922E+16   2.37959253191E+7   .0123471430239
   3.51067986612E+16   2.4016693372E+7   .0123157707322
   3.55350290302E+16   2.4237461425E+7   .0122494574784
   3.59632593992E+16   2.44582294779E+7   .0121949523561
   3.63922699494E+16   2.46793997421E+7   .01215576075
   3.68212804997E+16   2.49005700064E+7   .0121037023543
   3.72495108687E+16   2.51213380593E+7   .0120602468659
   3.76769610564E+16   2.53417039009E+7   .0120173546727
   3.8104411244E+16   2.55620697425E+7   .0119694325907
   3.8532641613E+16   2.57828377954E+7   .0119269411585
   3.89616521633E+16   2.60040080596E+7   .0118786342842
   3.93906627135E+16   2.62251783239E+7   .0118230068688
   3.98196732638E+16   2.64463485881E+7   .0117736750614
   4.02486838141E+16   2.66675188524E+7   .0117411531541
   4.06776943644E+16   2.68886891166E+7   .0117030804168
   4.11067049146E+16   2.71098593809E+7   .0116445099071
   4.15357154649E+16   2.73310296451E+7   .0116094434518
   4.19647260152E+16   2.75521999094E+7   .0115557482445
   4.23937365654E+16   2.77733701736E+7   .0115273764569
   4.28227471157E+16   2.79945404379E+7   .0114812074763
   4.3251757666E+16   2.82157107021E+7   .0114336081302
   4.36807682163E+16   2.84368809664E+7   .011388105385
   4.41097787665E+16   2.86580512306E+7   .0113647684791
   4.45387893168E+16   2.88792214949E+7   .0113310584715
   4.49677998671E+16   2.91003917591E+7   .0112734498363
   4.53968104173E+16   2.93215620234E+7   .0112258716095
   4.58258209676E+16   2.95427322876E+7   .0111913637847
   4.62548315179E+16   2.97639025519E+7   .011162980896
   4.66838420682E+16   2.99850728161E+7   .0111144688847
   4.71128526184E+16   3.02062430804E+7   .011077879484
   4.75418631687E+16   3.04274133446E+7   .0110459526912
   4.7970873719E+16   3.06485836089E+7   .0110013754146
   4.83998842692E+16   3.08697538731E+7   .0109811762079
   4.88288948195E+16   3.10909241374E+7   .0109210654
   4.92579053698E+16   3.13120944016E+7   .0108903290304
   4.96869159201E+16   3.15332646659E+7   .0108425078686
   5.01159264703E+16   3.17544349301E+7   .010825625839
   5.05449370206E+16   3.19756051944E+7   .0107826791422
   5.09739475709E+16   3.21967754586E+7   .0107454323888
   5.14037383024E+16   3.24183479342E+7   .0107158011978
   5.1833529034E+16   3.26399204098E+7   .010677361837
   5.22625395843E+16   3.2861090674E+7   .0106452959976
   5.26915501346E+16   3.30822609383E+7   .010604363447
   5.31205606848E+16   3.33034312025E+7   .0105760318479
   5.35503514164E+16   3.35250036781E+7   .0105480005268
   5.3980142148E+16   3.37465761537E+7   .0105016161124
   5.44091526982E+16   3.3967746418E+7   .0104619429304
   5.48381632485E+16   3.41889166822E+7   .0104321431521
   5.52671737988E+16   3.44100869465E+7   .0104062488281
   5.5696184349E+16   3.46312572107E+7   .0103752873444
   5.61251948993E+16   3.4852427475E+7   .0103409569829
   5.65542054496E+16   3.50735977392E+7   .0102995213517
   5.69832159999E+16   3.52947680035E+7   .0102776313932
   5.74130067314E+16   3.5516340479E+7   .0102382538107
   5.78435776443E+16   3.57383151659E+7   .0102080957506
   5.82741485572E+16   3.59602898528E+7   .0101772949614
   5.87039392887E+16   3.61818623284E+7   .0101395179098
   5.9132949839E+16   3.64030325927E+7   .0101099313455
   5.95619603893E+16   3.66242028569E+7   .0100956789636
   5.99909709395E+16   3.68453731212E+7   .0100596398318
   6.04199814898E+16   3.70665433854E+7   .0100245323831
   6.08497722214E+16   3.7288115861E+7   .00998937496587
   6.12803431343E+16   3.75100905479E+7   .00995665396276
   6.17109140471E+16   3.77320652348E+7   .00993199508951
   6.21407047787E+16   3.79536377104E+7   .0098984122038
   6.25704955103E+16   3.8175210186E+7   .00987583267972
   6.30010664231E+16   3.83971848729E+7   .0098494123027
   6.3431637336E+16   3.86191595598E+7   .00981275173843
   6.38614280676E+16   3.88407320354E+7   .00978246530765
   6.42904386178E+16   3.90619022996E+7   .00976039714472
   6.47194491681E+16   3.92830725639E+7   .00972529359315
   6.51484597184E+16   3.95042428281E+7   .00970311372119
   6.55774702687E+16   3.97254130924E+7   .00966497551968
   6.60064808189E+16   3.99465833566E+7   .00965366142052
   6.64354913692E+16   4.01677536209E+7   .00962129947225
   6.68645019195E+16   4.03889238851E+7   .00959333674399
   6.72935124697E+16   4.06100941494E+7   .00955800196397
   6.772252302E+16   4.08312644136E+7   .00954147105041
   6.81515335703E+16   4.10524346779E+7   .00951565568374
   6.85813243018E+16   4.12740071535E+7   .00948672601195
   6.90118952147E+16   4.14959818404E+7   .00945106503195
   6.94424661276E+16   4.17179565273E+7   .00942808508648
   6.98722568592E+16   4.19395290029E+7   .00940222556001
   7.03012674094E+16   4.21606992671E+7   .00937895152467
   7.07302779597E+16   4.23818695313E+7   .00935452508094
   7.115928851E+16   4.26030397956E+7   .009312032215
   7.15890792415E+16   4.28246122712E+7   .00930308242174
   7.20196501544E+16   4.30465869581E+7   .00926948027096
   7.24502210673E+16   4.3268561645E+7   .00924503178219
   7.28807919801E+16   4.34905363319E+7   .00921773925344
   7.33105827117E+16   4.37121088075E+7   .00918844269395
   7.3739593262E+16   4.39332790717E+7   .00917197027064
   7.41686038122E+16   4.4154449336E+7   .00912695555902
   7.45976143625E+16   4.43756196002E+7   .00911340684757
   7.50274050941E+16   4.45971920758E+7   .00908892882751
   7.5457976007E+16   4.48191667627E+7   .00906833427141
   7.58885469198E+16   4.50411414496E+7   .00903878001487
   7.63183376514E+16   4.52627139252E+7   .00901197829272
   7.67473482017E+16   4.54838841895E+7   .00900358385568
   7.71763587519E+16   4.57050544537E+7   .00897407986049
   7.76053693022E+16   4.5926224718E+7   .00894245024517
   7.80351600338E+16   4.61477971935E+7   .00892262069357
   7.84649507653E+16   4.63693696691E+7   .00889444017233
   7.88947414969E+16   4.65909421447E+7   .0088744450775
   7.93245322285E+16   4.68125146203E+7   .00885994376233
   7.97543229601E+16   4.70340870959E+7   .00883017083285
   8.01841136916E+16   4.72556595714E+7   .00880498842007
   8.06131242419E+16   4.74768298357E+7   .0087700887055
   8.10429149735E+16   4.76984023113E+7   .00875817003321
   8.14734858863E+16   4.79203769982E+7   .00872729862794
   8.19032766179E+16   4.81419494738E+7   .00871480043443
   8.23330673495E+16   4.83635219493E+7   .00869180196555
   8.2762858081E+16   4.85850944249E+7   .00866398448678
   8.31918686313E+16   4.88062646892E+7   .0086424820854
   8.36208791816E+16   4.90274349534E+7   .00861831808846
   8.40498897319E+16   4.92486052177E+7   .00859409892516
   8.44796804634E+16   4.94701776932E+7   .00856749398063
   8.49102513763E+16   4.96921523801E+7   .00855542159256
   8.53408222892E+16   4.99141270671E+7   .00853559315669
   8.5771393202E+16   5.0136101754E+7   .00850428026562
   8.62011839336E+16   5.03576742295E+7   .00848248051047
   8.66309746652E+16   5.05792467051E+7   .00845665072408
   8.70607653967E+16   5.08008191807E+7   .00844404348796
   8.7489775947E+16   5.1021989445E+7   .00842003625928
   8.79187864973E+16   5.12431597092E+7   .00839568620079
   8.83485772288E+16   5.14647321848E+7   .00836819638987
   8.87783679604E+16   5.16863046604E+7   .00834468771784
   8.92073785107E+16   5.19074749246E+7   .00833114770293
   8.9636389061E+16   5.21286451889E+7   .00830117993848
   9.00661797925E+16   5.23502176644E+7   .00828522839215
   9.04967507054E+16   5.25721923513E+7   .00826795536627
   9.0926541437E+16   5.27937648269E+7   .00824910311957
   9.13555519872E+16   5.30149350912E+7   .0082232781994
   9.17845625375E+16   5.32361053554E+7   .00820377566171
   9.22143532691E+16   5.3457677831E+7   .00819071308788
   9.26449241819E+16   5.36796525179E+7   .00816387389406
   9.30747149135E+16   5.39012249935E+7   .00814525593533
   9.35045056451E+16   5.41227974691E+7   .00812477420617
   9.39342963766E+16   5.43443699447E+7   .0080974577758
   9.43633069269E+16   5.45655402089E+7   .00808094220382
   9.47930976585E+16   5.47871126845E+7   .00806839045625
   9.52236685714E+16   5.50090873714E+7   .00804429653246
   9.56534593029E+16   5.5230659847E+7   .00802247414266
   9.60832500345E+16   5.54522323225E+7   .0080069199302
   9.65130407661E+16   5.56738047981E+7   .00798808699844
   9.69420513163E+16   5.58949750624E+7   .00796464370338
   9.73710618666E+16   5.61161453266E+7   .00793411161215
   9.78008525982E+16   5.63377178022E+7   .00792414755854
   9.8231423511E+16   5.65596924891E+7   .00790555589169
   9.86619944239E+16   5.6781667176E+7   .00788751220664
   9.90917851555E+16   5.70032396516E+7   .00787339964448
   9.95207957057E+16   5.72244099159E+7   .00785398978496
   9.9949806256E+16   5.74455801801E+7   .00782840087846
   1.00378816806E+17   5.76667504444E+7   .00781958530379
   1.00808607538E+17   5.78883229199E+7   .00779757192786
   1.01238398269E+17   5.81098953955E+7   .00778414042851
   1.0166740882E+17   5.83310656598E+7   .00776115011551
   1.0209641937E+17   5.8552235924E+7   .00774506224518
   1.02526210102E+17   5.87738083996E+7   .00772088440016
   1.02956000833E+17   5.89953808752E+7   .00770343842464
   1.03385011383E+17   5.92165511394E+7   .00768607280635
   1.03814021934E+17   5.94377214037E+7   .00767105012368
   1.04243032484E+17   5.96588916679E+7   .00764617279718
   1.04672823215E+17   5.98804641435E+7   .00762677481141
   1.05103394128E+17   6.01024388304E+7   .00761484111676
   1.0553318486E+17   6.0324011306E+7   .00759645006718
   1.0596219541E+17   6.05451815702E+7   .00757335580246
   1.0639120596E+17   6.07663518345E+7   .00755736309992
   1.06820216511E+17   6.09875220987E+7   .00753116754855
   1.07249227061E+17   6.1208692363E+7   .00751760051183
   1.07679017793E+17   6.14302648386E+7   .00750090651534
   1.08108808524E+17   6.16518373141E+7   .00748751330543
   1.08537819074E+17   6.18730075784E+7   .00747252681804
   1.08966829625E+17   6.20941778426E+7   .00745533011012
   1.09396620356E+17   6.23157503182E+7   .00743612806184
   1.09826411088E+17   6.25373227938E+7   .00742019480816
   1.10255421638E+17   6.2758493058E+7   .0074006414922
   1.10684432188E+17   6.29796633223E+7   .00739132497924
   1.11113442739E+17   6.32008335865E+7   .0073571930151
   1.11542453289E+17   6.34220038508E+7   .00734470357971
   1.11971463839E+17   6.3643174115E+7   .00733400916225
   1.12400474389E+17   6.38643443793E+7   .00730545241295
   1.1282948494E+17   6.40855146435E+7   .00729858619976
   1.1325849549E+17   6.43066849078E+7   .00727161197028
   1.1368750604E+17   6.4527855172E+7   .00726358634732
   1.14116516591E+17   6.47490254363E+7   .00724628378919
   1.14545527141E+17   6.49701957005E+7   .00723077196484
   1.14974537691E+17   6.51913659648E+7   .00721372097264
   1.15403548241E+17   6.5412536229E+7   .00720108357119
   1.15832558792E+17   6.56337064933E+7   .00717726011799
   1.16261569342E+17   6.58548767575E+7   .00715895873606
   1.16690579892E+17   6.60760470218E+7   .00714340086872
   1.17119590442E+17   6.6297217286E+7   .00713088129098
   1.17548600993E+17   6.65183875503E+7   .00712492785182
   1.17977611543E+17   6.67395578145E+7   .00710590025025
   1.18406622093E+17   6.69607280788E+7   .00708443939581
   1.18835632644E+17   6.7181898343E+7   .00706270651838
   1.19264643194E+17   6.74030686073E+7   .00705804121288
   1.19693653744E+17   6.76242388715E+7   .00703518102193
   1.20122664294E+17   6.78454091358E+7   .00701586332352
   1.20551674845E+17   6.80665794E+7   .0070016286627
   1.20980685395E+17   6.82877496643E+7   .00698990653521
   1.21409695945E+17   6.85089199285E+7   .00697126704161
   1.21838706495E+17   6.87300901928E+7   .00696285775674
   1.22267717046E+17   6.8951260457E+7   .0069395678417
   1.22696727596E+17   6.91724307213E+7   .00692708942441
   1.23125738146E+17   6.93936009855E+7   .00690923766438
   1.23553968515E+17   6.96143690385E+7   .00688734402568
   1.23982198884E+17   6.98351370914E+7   .00688412025299
   1.24411989616E+17   7.0056709567E+7   .00686920900136
   1.24841780347E+17   7.02782820425E+7   .00684972643321
   1.25271571079E+17   7.04998545181E+7   .00683594683763
   1.2570136181E+17   7.07214269937E+7   .00681963771817
   1.26130372361E+17   7.09425972579E+7   .00680901319564